Temperature,Cp,S,H
100.0,29.123337747863868,163.7512477566215,2.912847474778586
200.0,29.026344287154867,191.00977269935646,5.813447646634537
300.0,29.452428509987907,205.24697575970163,8.734476963683502
400.0,30.160529597250314,215.01419190648105,11.713266705072842
500.0,31.04217014844994,222.55925170746525,14.772356779018368
600.0,32.002905314700484,228.7854299755002,17.92433453370292
700.0,32.95131203514614,234.13521791060793,21.17252601597614
800.0,33.7968844010989,238.850622505035,24.511168786029454
900.0,34.449460121621236,243.0724735773564,27.925469522287685
1000.0,34.81902567269423,246.88504396222126,31.39162706336571
1100.0,34.81902567269423,246.88504396222126,31.39162706336571
1200.0,35.24796811379025,250.2242595543577,34.65080938034609
1300.0,35.62486070368356,253.30770760033823,37.95012951968808
1400.0,35.96466007559736,256.17284573028815,41.28518508677137
1500.0,36.27715795332161,258.8496954289161,44.652789371548366
1600.0,36.56897438583347,261.3626156132773,48.050563951330325
1700.0,36.84470803521286,263.73160181477385,51.47668406752866
1800.0,37.107627617627685,265.97324555840765,54.929713869428795
1900.0,37.360102353578384,268.101450631827,58.40849657670597
2000.0,37.603878230948695,270.12797426244515,61.91207932746246
2100.0,37.84026011634686,272.0628409232132,65.43966057185358
2200.0,38.070234677305244,273.9146624276018,68.9905524961063
2300.0,38.2945551220641,275.6908882722901,72.56415369453268
2400.0,38.5138007337423,277.3980034625965,76.15992897058345
2500.0,38.72841941690843,279.04168635836726,79.777394187638
2600.0,38.938758578650614,280.6269357635593,83.41610475560498
2700.0,39.14508786134631,282.15817411892925,87.07564677446099
2800.0,39.3476160947786,283.63933195304566,90.75563014589204
2900.0,39.54650408848586,285.0739175050071,94.45568316101162
3000.0,39.741874391286466,286.4650745178836,98.17544820786132
3100.0,39.93381881273201,287.8156305219228,101.91457833741138
3200.0,40.122404274393595,289.12813741603094,105.67273449420627
3300.0,40.307677401765346,290.40490576925976,109.449583266264
3400.0,40.48966815730359,291.6480339684532,113.24479504408521
3500.0,40.668392736788526,292.8594331104833,117.0580425045423
3600.0,40.84385589490816,294.04084836068876,120.88899935467381
3700.0,41.01605282508728,295.19387736083013,124.73733928484619
3800.0,41.18497068859888,296.3199861609389,128.60273509167305
3900.0,41.35058986579317,297.4205230630711,132.48485793942115
4000.0,41.512884985693844,298.4967306960578,136.3833767350458
4100.0,41.6718257777189,299.5497565850358,140.29795759697132
4200.0,41.82737777979841,300.5806624348788,144.2282634016109
4300.0,41.9795029299082,301.59043231042045,148.17395339466887
4400.0,42.128160062450654,302.5799798667837,152.13468285668083
4500.0,42.27330532658177,303.5501547588953,156.11010281416063
4600.0,42.4148925402027,304.5017483392981,160.09985978926258
4700.0,42.552873490679964,305.435498736849,164.10359558209487
4800.0,42.687198191263214,306.3520953951678,168.12094708082418
4900.0,42.817815100505555,307.2521831382416,172.15154609551618
5000.0,42.94467131066381,308.13636582099747,176.19501921232276
5100.0,43.067712709991234,309.00520961458915,180.25098766516615
5200.0,43.186884122977,309.8592459693293,184.31906722251983
5300.0,43.30212943189198,310.6989742924406,188.3988680872523
5400.0,43.41339168243515,311.5248643728946,192.48999480781023
5500.0,43.5206131758142,312.33735858143405,196.59204619926913
5600.0,43.62373554921491,313.1368738703018,200.70461527299753
5700.0,43.72269984630314,313.9238035941453,204.82728917385674
5800.0,43.817446579145795,314.69851917091916,208.9596491240113
5900.0,43.90791578272403,315.4613715993526,213.10127037255174
6000.0,43.994047063034344,316.21269284757363,217.2517221502413
6100.0,44.07577963962539,316.9527971257861,221.41056762878696
6200.0,44.153052383294124,317.6819820544146,225.57736388411757
6300.0,44.22580384956065,318.400529737842,229.75166186321462
6400.0,44.29397230845368,319.1087077527439,233.93300635410327
6500.0,44.35749577106396,319.806770059033,238.12093595865568
6600.0,44.416312013260374,320.49495784056865,242.31498306790513
6700.0,44.47035859691006,321.17350028202526,246.5146738396046
6800.0,44.51957288889821,321.8426152876446,250.7195281777946
6900.0,44.56389207820462,322.5025101470088,254.929059714174
7000.0,44.60325319126039,323.15338215244725,259.14277579109097
7100.0,44.63759310578027,323.7954191722315,263.3601774459915
7200.0,44.66684856324079,324.42880018329936,267.5807593971825
7300.0,44.69095618015386,325.05369576688884,271.8040100307809
7400.0,44.709852458266845,325.6702685701343,276.02941138873587
7500.0,44.72347379380429,326.2786737363906,280.2564391578216
7600.0,44.73175648585296,326.8790593067927,284.4845626595118
7700.0,44.73463674397972,327.47156659532465,288.71324484065184
7800.0,44.73205069516138,328.05633053946724,292.9419422648597
7900.0,44.723934390096716,328.63348002830713,297.17010510458636
8000.0,44.71022380896272,329.2031382098221,301.3971771337812
8100.0,44.69085486667042,329.7654227789071,305.62259572110617
8200.0,44.66576341766927,330.3204462475731,309.84579182365263
8300.0,44.63488526034399,330.868316198623,314.066189981119
8400.0,44.59815614104281,331.40913552400355,318.28320831040793
8500.0,44.55551175777202,331.94300264893025,322.49625850061045
8600.0,44.50688776358819,332.4700117427909,326.7047458083438
8700.0,44.45221976971574,332.99025291775337,330.90806905341395
8800.0,44.391443348415216,333.50381241592567,335.1056206147784
8900.0,44.32449403562477,334.0107727858536,339.2967864267835
9000.0,44.251307333394905,334.51121304907366,343.48094597565586
9100.0,44.171818712135064,335.0052088573872,347.6574722962265
9200.0,44.085963612688275,335.49283264146874,351.82573196887273
9300.0,43.99367744824885,335.97415375137473,355.9850851166585
9400.0,43.89489560613657,336.4492385894769,360.13488540265905
9500.0,43.78955344943923,336.9181507363051,364.27448002745695
9600.0,43.677586318535184,337.38095106974714,368.40320972679575
9700.0,43.55892953250508,337.83769787802373,372.52040876938065
9800.0,43.43351839044249,338.2884469668233,376.6254049548152
9900.0,43.30128817267125,338.73325176095506,380.7175196116639
10000.0,43.16217414187733,339.1721634008542,384.79606759563256
